wavelength[nm] rspd_A[-] rspd_D50[-] rspd_D65[-]
300 0.930483 0.019220 0.03410
301 0.967643 0.222348 0.36014
302 1.005970 0.425476 0.68618
303 1.045490 0.628604 1.01222
304 1.086230 0.831732 1.33826
305 1.128210 1.034860 1.66430
306 1.171470 1.237990 1.99034
307 1.216020 1.441120 2.31638
308 1.261880 1.644240 2.64242
309 1.309100 1.847370 2.96846
310 1.357690 2.050500 3.29450
311 1.407680 2.623290 4.98865
312 1.459100 3.196080 6.68280
313 1.511980 3.768870 8.37695
314 1.566330 4.341660 10.0711
315 1.622190 4.914450 11.7652
316 1.679590 5.487240 13.4594
317 1.738550 6.060030 15.1535
318 1.799100 6.632820 16.8477
319 1.861270 7.205610 18.5418
320 1.925080 7.778400 20.2360
321 1.990570 8.475310 21.9177
322 2.057760 9.172220 23.5995
323 2.126670 9.869130 25.2812
324 2.197340 10.56600 26.9630
325 2.269800 11.26300 28.6447
326 2.344060 11.95990 30.3265
327 2.420170 12.65680 32.0082
328 2.498140 13.35370 33.6900
329 2.578010 14.05060 35.3717
330 2.659810 14.74750 37.0535
331 2.743550 15.06760 37.3430
332 2.829280 15.38760 37.6326
333 2.917010 15.70760 37.9221
334 3.006780 16.02770 38.2116
335 3.098610 16.34780 38.5011
336 3.192530 16.66780 38.7907
337 3.288570 16.98780 39.0802
338 3.386760 17.30790 39.3697
339 3.487120 17.62800 39.6593
340 3.589680 17.94800 39.9488
341 3.694470 18.25420 40.4451
342 3.801520 18.56030 40.9414
343 3.910850 18.86650 41.4377
344 4.022500 19.17270 41.9340
345 4.136480 19.47880 42.4302
346 4.252820 19.78500 42.9265
347 4.371560 20.09120 43.4228
348 4.492720 20.39740 43.9191
349 4.616310 20.70350 44.4154
350 4.742380 21.00970 44.9117
351 4.870950 21.30290 45.0844
352 5.002040 21.59610 45.2570
353 5.135680 21.88940 45.4297
354 5.271890 22.18260 45.6023
355 5.410700 22.47580 45.7750
356 5.552130 22.76900 45.9477
357 5.696220 23.06220 46.1203
358 5.842980 23.35550 46.2930
359 5.992440 23.64870 46.4656
360 6.144620 23.94190 46.6383
361 6.299550 24.24380 47.1834
362 6.457240 24.54570 47.7285
363 6.617740 24.84750 48.2735
364 6.781050 25.14940 48.8186
365 6.947200 25.45130 49.3637
366 7.116210 25.75320 49.9088
367 7.288110 26.05510 50.4539
368 7.462920 26.35690 50.9989
369 7.640660 26.65880 51.5440
370 7.821350 26.96070 52.0891
371 8.005010 26.71340 51.8777
372 8.191670 26.46610 51.6664
373 8.381340 26.21870 51.4550
374 8.574040 25.97140 51.2437
375 8.769800 25.72410 51.0323
376 8.968640 25.47680 50.8209
377 9.170560 25.22950 50.6096
378 9.375610 24.98210 50.3982
379 9.583780 24.73480 50.1869
380 9.795100 24.48750 49.9755
381 10.00960 25.02580 50.4428
382 10.22730 25.56410 50.9100
383 10.44810 26.10240 51.3773
384 10.67220 26.64070 51.8446
385 10.89960 27.17900 52.3118
386 11.13020 27.71740 52.7791
387 11.36400 28.25570 53.2464
388 11.60120 28.79400 53.7137
389 11.84160 29.33230 54.1809
390 12.08530 29.87060 54.6482
391 12.33240 31.81440 57.4589
392 12.58280 33.75810 60.2695
393 12.83660 35.70180 63.0802
394 13.09380 37.64560 65.8909
395 13.35430 39.58940 68.7015
396 13.61820 41.53310 71.5122
397 13.88550 43.47680 74.3229
398 14.15630 45.42060 77.1336
399 14.43040 47.36440 79.9442
400 14.70800 49.30810 82.7549
401 14.98910 50.02860 83.6280
402 15.27360 50.74900 84.5011
403 15.56160 51.46950 85.3742
404 15.85300 52.19000 86.2473
405 16.14800 52.91040 87.1204
406 16.44640 53.63090 87.9936
407 16.74840 54.35140 88.8667
408 17.05380 55.07190 89.7398
409 17.36280 55.79230 90.6129
410 17.67530 56.51280 91.4860
411 17.99130 56.86490 91.6806
412 18.31080 57.21700 91.8752
413 18.63390 57.56910 92.0697
414 18.96050 57.92120 92.2643
415 19.29070 58.27330 92.4589
416 19.62440 58.62540 92.6535
417 19.96170 58.97750 92.8481
418 20.30260 59.32960 93.0426
419 20.64700 59.68170 93.2372
420 20.99500 60.03380 93.4318
421 21.34650 59.81220 92.7568
422 21.70160 59.59050 92.0819
423 22.06030 59.36890 91.4069
424 22.42250 59.14730 90.7320
425 22.78830 58.92560 90.0570
426 23.15770 58.70400 89.3821
427 23.53070 58.48240 88.7071
428 23.90720 58.26080 88.0322
429 24.28730 58.03910 87.3572
430 24.67090 57.81750 86.6823
431 25.05810 59.51820 88.5006
432 25.44890 61.21900 90.3188
433 25.84320 62.91970 92.1371
434 26.24110 64.62050 93.9554
435 26.64250 66.32120 95.7736
436 27.04750 68.02190 97.5919
437 27.45600 69.72270 99.4102
438 27.86810 71.42340 101.228
439 28.28360 73.12420 103.047
440 28.70270 74.82490 104.865
441 29.12530 76.06710 106.079
442 29.55150 77.30940 107.294
443 29.98110 78.55160 108.508
444 30.41420 79.79380 109.722
445 30.85080 81.03600 110.936
446 31.29090 82.27830 112.151
447 31.73450 83.52050 113.365
448 32.18150 84.76270 114.579
449 32.63200 86.00500 115.794
450 33.08590 87.24720 117.008
451 33.54320 87.58370 117.088
452 34.00400 87.92020 117.169
453 34.46820 88.25670 117.249
454 34.93580 88.59320 117.330
455 35.40680 88.92970 117.410
456 35.88110 89.26620 117.490
457 36.35880 89.60270 117.571
458 36.83990 89.93920 117.651
459 37.32430 90.27570 117.732
460 37.81210 90.61220 117.812
461 38.30310 90.68780 117.517
462 38.79750 90.76340 117.222
463 39.29510 90.83900 116.927
464 39.79600 90.91460 116.632
465 40.30020 90.99020 116.336
466 40.80760 91.06570 116.041
467 41.31820 91.14130 115.746
468 41.83200 91.21690 115.451
469 42.34910 91.29250 115.156
470 42.86930 91.36810 114.861
471 43.39260 91.74210 114.967
472 43.91920 92.11620 115.073
473 44.44880 92.49020 115.180
474 44.98160 92.86430 115.286
475 45.51740 93.23830 115.392
476 46.05630 93.61230 115.498
477 46.59830 93.98640 115.604
478 47.14330 94.36040 115.711
479 47.69130 94.73450 115.817
480 48.24230 95.10850 115.923
481 48.79630 94.79390 115.212
482 49.35330 94.47930 114.501
483 49.91320 94.16480 113.789
484 50.47600 93.85020 113.078
485 51.04180 93.53560 112.367
486 51.61040 93.22100 111.656
487 52.18180 92.90640 110.945
488 52.75610 92.59190 110.233
489 53.33320 92.27730 109.522
490 53.91320 91.96270 108.811
491 54.49580 92.33880 108.865
492 55.08130 92.71490 108.920
493 55.66940 93.09100 108.974
494 56.26030 93.46710 109.028
495 56.85390 93.84320 109.082
496 57.45010 94.21930 109.137
497 58.04890 94.59540 109.191
498 58.65040 94.97150 109.245
499 59.25450 95.34760 109.300
500 59.86110 95.72370 109.354
501 60.47030 95.81270 109.199
502 61.08200 95.90160 109.044
503 61.69620 95.99060 108.888
504 62.31280 96.07950 108.733
505 62.93200 96.16850 108.578
506 63.55350 96.25750 108.423
507 64.17750 96.34640 108.268
508 64.80380 96.43540 108.112
509 65.43250 96.52430 107.957
510 66.06350 96.61330 107.802
511 66.69680 96.66490 107.501
512 67.33240 96.71640 107.200
513 67.97020 96.76800 106.898
514 68.61020 96.81960 106.597
515 69.25250 96.87120 106.296
516 69.89690 96.92270 105.995
517 70.54350 96.97430 105.694
518 71.19220 97.02590 105.392
519 71.84300 97.07740 105.091
520 72.49590 97.12900 104.790
521 73.15080 97.62600 105.080
522 73.80770 98.12300 105.370
523 74.46660 98.62000 105.660
524 75.12750 99.11700 105.950
525 75.79030 99.61400 106.239
526 76.45510 100.1110 106.529
527 77.12170 100.6080 106.819
528 77.79020 101.1050 107.109
529 78.46050 101.6020 107.399
530 79.13260 102.0990 107.689
531 79.80650 101.9650 107.361
532 80.48210 101.8300 107.032
533 81.15950 101.6960 106.704
534 81.83860 101.5610 106.375
535 82.51930 101.4270 106.047
536 83.20170 101.2920 105.719
537 83.88560 101.1580 105.390
538 84.57120 101.0240 105.062
539 85.25840 100.8890 104.733
540 85.94700 100.7550 104.405
541 86.63720 100.9110 104.369
542 87.32880 101.0670 104.333
543 88.02190 101.2230 104.297
544 88.71650 101.3800 104.261
545 89.41240 101.5360 104.225
546 90.10970 101.6920 104.190
547 90.80830 101.8480 104.154
548 91.50820 102.0050 104.118
549 92.20950 102.1610 104.082
550 92.91200 102.3170 104.046
551 93.61570 102.0850 103.641
552 94.32060 101.8540 103.237
553 95.02670 101.6220 102.832
554 95.73390 101.3900 102.428
555 96.44230 101.1580 102.023
556 97.15180 100.9270 101.618
557 97.86230 100.6950 101.214
558 98.57390 100.4630 100.809
559 99.28640 100.2320 100.405
560 100.0000 100.0000 100.000
561 100.7150 99.77350 99.6334
562 101.4300 99.54700 99.2668
563 102.1460 99.32050 98.9003
564 102.8640 99.09400 98.5337
565 103.5820 98.86750 98.1671
566 104.3010 98.64100 97.8005
567 105.0200 98.41450 97.4339
568 105.7410 98.18800 97.0674
569 106.4620 97.96150 96.7008
570 107.1840 97.73500 96.3342
571 107.9060 97.85330 96.2796
572 108.6300 97.97160 96.2250
573 109.3540 98.08990 96.1703
574 110.0780 98.20820 96.1157
575 110.8030 98.32650 96.0611
576 111.5290 98.44480 96.0065
577 112.2550 98.56310 95.9519
578 112.9820 98.68140 95.8972
579 113.7090 98.79970 95.8426
580 114.4360 98.91800 95.7880
581 115.1640 98.37610 95.0778
582 115.8930 97.83420 94.3675
583 116.6220 97.29220 93.6573
584 117.3510 96.75030 92.9470
585 118.0800 96.20840 92.2368
586 118.8100 95.66650 91.5266
587 119.5400 95.12460 90.8163
588 120.2700 94.58260 90.1061
589 121.0010 94.04070 89.3958
590 121.7310 93.49880 88.6856
591 122.4620 93.91770 88.8177
592 123.1930 94.33660 88.9497
593 123.9240 94.75550 89.0818
594 124.6550 95.17440 89.2138
595 125.3860 95.59330 89.3459
596 126.1180 96.01220 89.4780
597 126.8490 96.43110 89.6100
598 127.5800 96.85000 89.7421
599 128.3120 97.26890 89.8741
600 129.0430 97.68780 90.0062
601 129.7740 97.84590 89.9655
602 130.5050 98.00410 89.9248
603 131.2360 98.16220 89.8841
604 131.9660 98.32030 89.8434
605 132.6970 98.47840 89.8026
606 133.4270 98.63660 89.7619
607 134.1570 98.79470 89.7212
608 134.8870 98.95280 89.6805
609 135.6170 99.11100 89.6398
610 136.3460 99.26910 89.5991
611 137.0750 99.24630 89.4091
612 137.8040 99.22360 89.2190
613 138.5320 99.20080 89.0290
614 139.2600 99.17810 88.8389
615 139.9880 99.15530 88.6489
616 140.7150 99.13250 88.4589
617 141.4410 99.10980 88.2688
618 142.1670 99.08700 88.0788
619 142.8930 99.06430 87.8887
620 143.6180 99.04150 87.6987
621 144.3430 98.70950 87.2577
622 145.0670 98.37760 86.8167
623 145.7900 98.04560 86.3757
624 146.5130 97.71360 85.9347
625 147.2350 97.38160 85.4936
626 147.9570 97.04970 85.0526
627 148.6780 96.71770 84.6116
628 149.3980 96.38570 84.1706
629 150.1170 96.05380 83.7296
630 150.8360 95.72180 83.2886
631 151.5540 96.03530 83.3297
632 152.2710 96.34890 83.3707
633 152.9880 96.66240 83.4118
634 153.7040 96.97600 83.4528
635 154.4180 97.28950 83.4939
636 155.1320 97.60300 83.5350
637 155.8450 97.91660 83.5760
638 156.5580 98.23010 83.6171
639 157.2690 98.54370 83.6581
640 157.9790 98.85720 83.6992
641 158.6890 98.53820 83.3320
642 159.3970 98.21920 82.9647
643 160.1040 97.90020 82.5975
644 160.8110 97.58120 82.2302
645 161.5160 97.26220 81.8630
646 162.2210 96.94320 81.4958
647 162.9240 96.62420 81.1285
648 163.6260 96.30520 80.7613
649 164.3270 95.98620 80.3940
650 165.0280 95.66720 80.0268
651 165.7260 95.91950 80.0456
652 166.4240 96.17170 80.0644
653 167.1210 96.42400 80.0831
654 167.8160 96.67620 80.1019
655 168.5100 96.92850 80.1207
656 169.2030 97.18080 80.1395
657 169.8950 97.43300 80.1583
658 170.5860 97.68530 80.1770
659 171.2750 97.93750 80.1958
660 171.9630 98.18980 80.2146
661 172.6500 98.67120 80.4209
662 173.3350 99.15250 80.6272
663 174.0190 99.63390 80.8336
664 174.7020 100.1150 81.0399
665 175.3830 100.5970 81.2462
666 176.0630 101.0780 81.4525
667 176.7410 101.5590 81.6588
668 177.4190 102.0410 81.8652
669 178.0940 102.5220 82.0715
670 178.7690 103.0030 82.2778
671 179.4410 102.6160 81.8784
672 180.1130 102.2290 81.4791
673 180.7830 101.8420 81.0797
674 181.4510 101.4550 80.6804
675 182.1180 101.0680 80.2810
676 182.7830 100.6810 79.8816
677 183.4470 100.2940 79.4823
678 184.1090 99.90710 79.0829
679 184.7700 99.52000 78.6836
680 185.4290 99.13300 78.2842
681 186.0870 97.95780 77.4279
682 186.7430 96.78260 76.5716
683 187.3970 95.60740 75.7153
684 188.0500 94.43220 74.8590
685 188.7010 93.25700 74.0027
686 189.3500 92.08170 73.1465
687 189.9980 90.90650 72.2902
688 190.6440 89.73130 71.4339
689 191.2880 88.55610 70.5776
690 191.9310 87.38090 69.7213
691 192.5720 87.80320 69.9101
692 193.2110 88.22540 70.0989
693 193.8490 88.64770 70.2876
694 194.4840 89.06990 70.4764
695 195.1180 89.49220 70.6652
696 195.7500 89.91450 70.8540
697 196.3810 90.33670 71.0428
698 197.0090 90.75900 71.2315
699 197.6360 91.18120 71.4203
700 198.2610 91.60350 71.6091
701 198.8840 91.73200 71.8831
702 199.5060 91.86050 72.1571
703 200.1250 91.98900 72.4311
704 200.7430 92.11750 72.7051
705 201.3590 92.24600 72.9790
706 201.9720 92.37460 73.2530
707 202.5840 92.50310 73.5270
708 203.1950 92.63160 73.8010
709 203.8030 92.76010 74.0750
710 204.4090 92.88860 74.3490
711 205.0130 91.28520 73.0745
712 205.6160 89.68180 71.8000
713 206.2160 88.07830 70.5255
714 206.8150 86.47490 69.2510
715 207.4110 84.87150 67.9765
716 208.0060 83.26810 66.7020
717 208.5990 81.66470 65.4275
718 209.1890 80.06120 64.1530
719 209.7780 78.45780 62.8785
720 210.3650 76.85440 61.6040
721 210.9490 77.82010 62.4322
722 211.5320 78.78580 63.2603
723 212.1120 79.75140 64.0885
724 212.6910 80.71710 64.9166
725 213.2680 81.68280 65.7448
726 213.8420 82.64850 66.5730
727 214.4150 83.61420 67.4011
728 214.9850 84.57980 68.2293
729 215.5530 85.54550 69.0574
730 216.1200 86.51120 69.8856
731 216.6840 87.11810 70.4057
732 217.2460 87.72490 70.9259
733 217.8060 88.33180 71.4460
734 218.3640 88.93860 71.9662
735 218.9200 89.54550 72.4863
736 219.4730 90.15240 73.0064
737 220.0250 90.75920 73.5266
738 220.5740 91.36610 74.0467
739 221.1220 91.97290 74.5669
740 221.6670 92.57980 75.0870
741 222.2100 91.14480 73.9376
742 222.7510 89.70980 72.7881
743 223.2900 88.27480 71.6387
744 223.8260 86.83980 70.4893
745 224.3610 85.40480 69.3398
746 224.8930 83.96990 68.1904
747 225.4230 82.53490 67.0410
748 225.9510 81.09990 65.8916
749 226.4770 79.66490 64.7421
750 227.0000 78.22990 63.5927
751 227.5220 76.17610 61.8752
752 228.0410 74.12230 60.1578
753 228.5580 72.06850 58.4403
754 229.0730 70.01470 56.7229
755 229.5850 67.96080 55.0054
756 230.0960 65.90700 53.2880
757 230.6040 63.85320 51.5705
758 231.1100 61.79940 49.8531
759 231.6140 59.74560 48.1356
760 232.1150 57.69180 46.4182
761 232.6150 60.21490 48.4569
762 233.1120 62.73800 50.4956
763 233.6060 65.26120 52.5344
764 234.0990 67.78430 54.5731
765 234.5890 70.30740 56.6118
766 235.0780 72.83050 58.6505
767 235.5640 75.35360 60.6892
768 236.0470 77.87680 62.7280
769 236.5290 80.39990 64.7667
770 237.0080 82.92300 66.8054
771 237.4850 82.45810 66.4631
772 237.9590 81.99320 66.1209
773 238.4320 81.52830 65.7786
774 238.9020 81.06340 65.4364
775 239.3700 80.59850 65.0941
776 239.8360 80.13360 64.7518
777 240.2990 79.66870 64.4096
778 240.7600 79.20380 64.0673
779 241.2190 78.73890 63.7251
780 241.6750 78.27400 63.3828
781 242.1300 78.40200 63.4749
782 242.5820 78.53010 63.5670
783 243.0310 78.65810 63.6592
784 243.4790 78.78620 63.7513
785 243.9240 78.91420 63.8434
786 244.3670 79.04220 63.9355
787 244.8080 79.17030 64.0276
788 245.2460 79.29830 64.1198
789 245.6820 79.42640 64.2119
790 246.1160 79.55440 64.3040
791 246.5480 78.93910 63.8188
792 246.9770 78.32380 63.3336
793 247.4040 77.70850 62.8484
794 247.8290 77.09320 62.3632
795 248.2510 76.47800 61.8779
796 248.6710 75.86270 61.3927
797 249.0890 75.24740 60.9075
798 249.5050 74.63210 60.4223
799 249.9180 74.01680 59.9371
800 250.3290 73.40150 59.4519
801 250.7380 72.45340 58.7026
802 251.1440 71.50520 57.9533
803 251.5480 70.55710 57.2040
804 251.9500 69.60900 56.4547
805 252.3500 68.66080 55.7054
806 252.7470 67.71270 54.9562
807 253.1420 66.76460 54.2069
808 253.5350 65.81650 53.4576
809 253.9250 64.86830 52.7083
810 254.3140 63.92020 51.9590
811 254.7000 64.60590 52.5072
812 255.0830 65.29160 53.0553
813 255.4650 65.97720 53.6035
814 255.8440 66.66290 54.1516
815 256.2210 67.34860 54.6998
816 256.5950 68.03430 55.2480
817 256.9680 68.72000 55.7961
818 257.3380 69.40560 56.3443
819 257.7060 70.09130 56.8924
820 258.0710 70.77700 57.4406
821 258.4340 71.14350 57.7278
822 258.7950 71.50990 58.0150
823 259.1540 71.87640 58.3022
824 259.5110 72.24290 58.5894
825 259.8650 72.60940 58.8765
826 260.2170 72.97580 59.1637
827 260.5670 73.34230 59.4509
828 260.9140 73.70880 59.7381
829 261.2590 74.07520 60.0253
830 261.6020 74.44170 60.3125